# ALMA, Llano de Chajnantor, alt. 5040m
# First column frequency in GHz.
# Following column(s) sky brightness temperature(s)
# First row PWVs from 1st to 7th octile
F 0.472 0.658 0.913 1.262 1.796 2.748 5.186
84.00000	7.652	7.892	8.221	8.670	9.353	10.563	13.623
84.10000	7.625	7.866	8.195	8.645	9.330	10.542	13.609
84.20000	7.598	7.840	8.170	8.621	9.307	10.523	13.596
84.30000	7.572	7.814	8.145	8.597	9.284	10.503	13.583
84.40000	7.546	7.788	8.120	8.573	9.263	10.484	13.570
84.50000	7.520	7.764	8.096	8.550	9.241	10.465	13.559
84.60000	7.495	7.739	8.073	8.528	9.220	10.447	13.547
84.70000	7.471	7.715	8.050	8.506	9.200	10.429	13.537
84.80000	7.447	7.692	8.027	8.484	9.180	10.412	13.527
84.90000	7.423	7.669	8.004	8.463	9.160	10.395	13.517
85.00000	7.399	7.646	7.982	8.442	9.141	10.379	13.508
85.10000	7.377	7.624	7.961	8.422	9.123	10.364	13.500
85.20000	7.354	7.601	7.940	8.401	9.104	10.348	13.491
85.30000	7.331	7.579	7.919	8.381	9.086	10.333	13.483
85.40000	7.309	7.558	7.898	8.362	9.068	10.318	13.476
85.50000	7.287	7.537	7.878	8.343	9.051	10.304	13.469
85.60000	7.266	7.516	7.858	8.324	9.034	10.290	13.463
85.70000	7.245	7.496	7.838	8.306	9.017	10.276	13.457
85.80000	7.224	7.476	7.819	8.288	9.001	10.263	13.451
85.90000	7.204	7.456	7.801	8.270	8.985	10.250	13.446
86.00000	7.184	7.437	7.782	8.253	8.969	10.237	13.440
86.10000	7.164	7.418	7.764	8.236	8.954	10.225	13.436
86.20000	7.145	7.399	7.746	8.219	8.940	10.214	13.432
86.30000	7.126	7.381	7.729	8.203	8.925	10.203	13.429
86.40000	7.107	7.363	7.712	8.187	8.911	10.192	13.427
86.50000	7.089	7.345	7.695	8.172	8.898	10.182	13.424
86.60000	7.071	7.328	7.679	8.157	8.885	10.172	13.423
86.70000	7.056	7.314	7.666	8.145	8.875	10.165	13.424
86.80000	7.037	7.295	7.647	8.128	8.860	10.154	13.421
86.90000	7.019	7.278	7.631	8.114	8.847	10.145	13.420
87.00000	7.002	7.261	7.616	8.100	8.835	10.136	13.420
87.10000	6.985	7.245	7.601	8.086	8.823	10.128	13.420
87.20000	6.969	7.230	7.587	8.073	8.812	10.120	13.421
87.30000	6.953	7.215	7.572	8.060	8.801	10.112	13.422
87.40000	6.937	7.200	7.558	8.047	8.791	10.105	13.423
87.50000	6.922	7.185	7.544	8.035	8.780	10.098	13.425
87.60000	6.906	7.170	7.531	8.022	8.770	10.092	13.427
87.70000	6.892	7.157	7.518	8.011	8.760	10.086	13.429
87.80000	6.877	7.142	7.505	7.999	8.750	10.079	13.431
87.90000	6.862	7.128	7.492	7.987	8.741	10.072	13.432
88.00000	6.848	7.115	7.479	7.975	8.731	10.066	13.433
88.10000	6.834	7.101	7.466	7.964	8.721	10.059	13.434
88.20000	6.820	7.088	7.454	7.953	8.711	10.052	13.434
88.30000	6.806	7.075	7.441	7.941	8.702	10.045	13.434
88.40000	6.792	7.062	7.429	7.930	8.692	10.039	13.435
88.50000	6.780	7.050	7.418	7.920	8.684	10.033	13.436
88.60000	6.767	7.038	7.407	7.910	8.675	10.027	13.436
88.70000	6.753	7.024	7.394	7.898	8.665	10.020	13.436
88.80000	6.740	7.012	7.383	7.888	8.656	10.014	13.437
88.90000	6.728	7.000	7.372	7.878	8.648	10.008	13.438
89.00000	6.715	6.988	7.361	7.868	8.639	10.003	13.439
89.10000	6.703	6.977	7.350	7.859	8.632	9.998	13.441
89.20000	6.692	6.966	7.340	7.850	8.624	9.993	13.444
89.30000	6.680	6.955	7.330	7.841	8.617	9.988	13.446
89.40000	6.669	6.944	7.320	7.832	8.610	9.984	13.449
89.50000	6.658	6.934	7.311	7.823	8.603	9.980	13.452
89.60000	6.647	6.924	7.301	7.815	8.597	9.977	13.456
89.70000	6.637	6.914	7.292	7.807	8.590	9.974	13.460
89.80000	6.626	6.904	7.283	7.800	8.584	9.971	13.465
89.90000	6.616	6.895	7.275	7.792	8.579	9.968	13.469
90.00000	6.606	6.885	7.266	7.785	8.573	9.966	13.474
90.10000	6.597	6.876	7.258	7.778	8.568	9.963	13.480
90.20000	6.587	6.868	7.250	7.771	8.563	9.962	13.485
90.30000	6.578	6.859	7.243	7.765	8.558	9.960	13.491
90.40000	6.569	6.851	7.235	7.758	8.554	9.958	13.497
90.50000	6.560	6.843	7.228	7.752	8.550	9.957	13.504
90.60000	6.552	6.835	7.221	7.747	8.546	9.956	13.511
90.70000	6.543	6.827	7.214	7.741	8.542	9.956	13.518
90.80000	6.536	6.820	7.208	7.736	8.539	9.956	13.526
90.90000	6.529	6.814	7.203	7.732	8.536	9.957	13.534
91.00000	6.521	6.807	7.196	7.727	8.533	9.956	13.542
91.10000	6.512	6.799	7.190	7.721	8.529	9.956	13.549
91.20000	6.505	6.792	7.184	7.717	8.527	9.956	13.557
91.30000	6.498	6.786	7.178	7.712	8.524	9.957	13.565
91.40000	6.490	6.779	7.172	7.708	8.521	9.957	13.574
91.50000	6.484	6.773	7.167	7.704	8.519	9.958	13.582
91.60000	6.477	6.767	7.162	7.700	8.517	9.960	13.592
91.70000	6.471	6.761	7.157	7.697	8.516	9.961	13.601
91.80000	6.465	6.756	7.153	7.693	8.514	9.963	13.611
91.90000	6.459	6.751	7.149	7.690	8.513	9.965	13.621
92.00000	6.453	6.746	7.145	7.688	8.512	9.967	13.631
92.10000	6.448	6.741	7.141	7.685	8.512	9.970	13.642
92.20000	6.443	6.737	7.138	7.683	8.511	9.973	13.653
92.30000	6.438	6.733	7.135	7.681	8.511	9.976	13.664
92.40000	6.434	6.729	7.132	7.680	8.511	9.980	13.675
92.50000	6.430	6.725	7.129	7.678	8.512	9.983	13.687
92.60000	6.426	6.722	7.127	7.677	8.513	9.987	13.699
92.70000	6.422	6.720	7.125	7.676	8.514	9.992	13.711
92.80000	6.419	6.717	7.124	7.676	8.516	9.997	13.724
92.90000	6.417	6.716	7.123	7.677	8.518	10.003	13.738
93.00000	6.416	6.715	7.123	7.678	8.522	10.009	13.753
93.10000	6.416	6.716	7.125	7.681	8.526	10.017	13.768
93.20000	6.417	6.718	7.128	7.685	8.532	10.026	13.786
93.30000	6.421	6.723	7.133	7.692	8.541	10.038	13.806
93.40000	6.429	6.731	7.143	7.703	8.553	10.053	13.829
93.50000	6.444	6.746	7.159	7.720	8.572	10.075	13.858
93.60000	6.475	6.778	7.191	7.754	8.607	10.114	13.904
93.70000	6.551	6.854	7.268	7.831	8.686	10.194	13.991
93.80000	6.846	7.149	7.562	8.125	8.979	10.488	14.286
93.90000	7.032	7.335	7.748	8.311	9.166	10.675	14.478
94.00000	6.916	7.220	7.635	8.199	9.057	10.571	14.384
94.10000	6.559	6.865	7.282	7.850	8.713	10.235	14.063
94.20000	6.470	6.777	7.196	7.765	8.631	10.157	13.996
94.30000	6.431	6.739	7.159	7.730	8.598	10.128	13.976
94.40000	6.411	6.720	7.141	7.714	8.583	10.116	13.973
94.50000	6.399	6.709	7.131	7.705	8.576	10.113	13.978
94.60000	6.391	6.701	7.124	7.700	8.573	10.113	13.987
94.70000	6.386	6.697	7.121	7.698	8.573	10.117	13.999
94.80000	6.383	6.694	7.119	7.697	8.575	10.122	14.012
94.90000	6.380	6.692	7.118	7.697	8.577	10.127	14.026
95.00000	6.379	6.692	7.119	7.699	8.581	10.134	14.042
95.10000	6.379	6.693	7.121	7.703	8.586	10.143	14.059
95.20000	6.381	6.695	7.124	7.707	8.592	10.153	14.077
95.30000	6.384	6.699	7.129	7.714	8.601	10.165	14.097
95.40000	6.390	6.706	7.137	7.723	8.612	10.179	14.120
95.50000	6.400	6.716	7.148	7.735	8.626	10.197	14.146
95.60000	6.417	6.735	7.167	7.755	8.648	10.222	14.179
95.70000	6.458	6.776	7.209	7.799	8.693	10.270	14.235
95.80000	6.777	7.094	7.527	8.115	9.009	10.586	14.552
95.90000	6.510	6.829	7.264	7.855	8.753	10.336	14.318
96.00000	6.553	6.873	7.309	7.901	8.801	10.387	14.376
96.10000	6.722	7.042	7.478	8.070	8.970	10.558	14.552
96.20000	7.650	7.967	8.399	8.988	9.883	11.464	15.446
96.30000	7.001	7.320	7.757	8.351	9.252	10.844	14.850
96.40000	6.622	6.945	7.384	7.982	8.889	10.489	14.511
96.50000	6.511	6.835	7.276	7.876	8.786	10.391	14.424
96.60000	6.463	6.788	7.230	7.832	8.744	10.353	14.397
96.70000	6.439	6.765	7.208	7.811	8.726	10.338	14.391
96.80000	6.427	6.753	7.197	7.802	8.718	10.335	14.396
96.90000	6.420	6.747	7.193	7.799	8.717	10.337	14.407
97.00000	6.414	6.742	7.188	7.795	8.716	10.339	14.417
97.10000	6.412	6.740	7.188	7.796	8.718	10.345	14.431
97.20000	6.412	6.741	7.189	7.798	8.723	10.352	14.446
97.30000	6.412	6.742	7.191	7.802	8.728	10.361	14.463
97.40000	6.414	6.745	7.195	7.807	8.735	10.370	14.480
97.50000	6.417	6.748	7.199	7.812	8.742	10.381	14.498
97.60000	6.420	6.752	7.204	7.818	8.750	10.392	14.517
97.70000	6.424	6.756	7.209	7.825	8.758	10.404	14.537
97.80000	6.428	6.761	7.215	7.832	8.767	10.416	14.557
97.90000	6.433	6.767	7.222	7.840	8.777	10.429	14.578
98.00000	6.437	6.772	7.227	7.846	8.785	10.440	14.598
98.10000	6.443	6.778	7.234	7.854	8.795	10.454	14.619
98.20000	6.448	6.784	7.242	7.863	8.806	10.467	14.641
98.30000	6.455	6.791	7.250	7.872	8.817	10.482	14.663
98.40000	6.462	6.799	7.258	7.882	8.828	10.496	14.686
98.50000	6.468	6.806	7.266	7.892	8.840	10.511	14.709
98.60000	6.477	6.815	7.276	7.903	8.853	10.528	14.734
98.70000	6.485	6.824	7.286	7.914	8.866	10.544	14.758
98.80000	6.493	6.833	7.295	7.925	8.879	10.560	14.783
98.90000	6.502	6.843	7.307	7.937	8.893	10.577	14.808
99.00000	6.513	6.854	7.319	7.950	8.908	10.596	14.835
99.10000	6.528	6.870	7.335	7.968	8.928	10.619	14.866
99.20000	6.568	6.911	7.377	8.011	8.972	10.666	14.921
99.30000	6.574	6.917	7.385	8.020	8.983	10.680	14.943
99.40000	6.559	6.903	7.372	8.008	8.973	10.674	14.947
99.50000	6.566	6.911	7.380	8.018	8.985	10.689	14.970
99.60000	6.577	6.922	7.393	8.032	9.001	10.709	14.998
99.70000	6.592	6.938	7.409	8.049	9.020	10.731	15.029
99.80000	6.606	6.953	7.425	8.066	9.039	10.754	15.059
99.90000	6.620	6.967	7.440	8.083	9.057	10.775	15.089
100.00000	6.637	6.984	7.458	8.102	9.079	10.799	15.121
100.10000	6.656	7.004	7.479	8.124	9.102	10.827	15.157
100.20000	6.678	7.027	7.502	8.148	9.129	10.856	15.194
100.30000	6.703	7.053	7.529	8.176	9.159	10.889	15.236
100.40000	6.734	7.085	7.562	8.210	9.194	10.928	15.282
100.50000	6.777	7.128	7.606	8.256	9.241	10.978	15.340
100.60000	6.824	7.175	7.654	8.304	9.291	11.031	15.401
100.70000	6.917	7.268	7.747	8.399	9.387	11.129	15.505
100.80000	6.791	7.144	7.625	8.278	9.269	11.017	15.405
100.90000	6.788	7.142	7.624	8.279	9.272	11.023	15.420
101.00000	6.800	7.154	7.637	8.293	9.289	11.043	15.448
101.10000	6.821	7.176	7.660	8.317	9.314	11.072	15.485
101.20000	6.854	7.210	7.694	8.353	9.352	11.112	15.534
101.30000	6.897	7.253	7.739	8.398	9.399	11.163	15.592
101.40000	6.970	7.327	7.812	8.473	9.475	11.241	15.678
101.50000	7.106	7.463	7.949	8.609	9.612	11.381	15.823
101.60000	7.427	7.782	8.268	8.928	9.930	11.698	16.141
101.70000	8.884	9.235	9.715	10.368	11.361	13.116	17.535
101.80000	8.325	8.678	9.161	9.818	10.818	12.582	17.023
101.90000	7.441	7.799	8.287	8.951	9.959	11.737	16.207
102.00000	7.159	7.519	8.010	8.677	9.690	11.476	15.961
102.10000	7.060	7.421	7.913	8.583	9.598	11.389	15.885
102.20000	7.018	7.380	7.874	8.545	9.563	11.357	15.864
102.30000	7.000	7.363	7.858	8.531	9.551	11.350	15.865
102.40000	6.996	7.360	7.856	8.530	9.552	11.354	15.879
102.50000	7.000	7.365	7.862	8.537	9.562	11.367	15.901
102.60000	7.009	7.374	7.872	8.549	9.575	11.384	15.927
102.70000	7.021	7.387	7.886	8.564	9.592	11.405	15.956
102.80000	7.035	7.402	7.902	8.581	9.612	11.428	15.988
102.90000	7.052	7.420	7.920	8.601	9.633	11.453	16.021
103.00000	7.071	7.439	7.941	8.622	9.657	11.480	16.057
103.10000	7.092	7.460	7.963	8.646	9.682	11.509	16.094
103.20000	7.115	7.484	7.988	8.672	9.710	11.540	16.134
103.30000	7.141	7.511	8.015	8.701	9.741	11.574	16.176
103.40000	7.173	7.544	8.049	8.735	9.777	11.614	16.224
103.50000	7.206	7.577	8.083	8.771	9.814	11.654	16.273
103.60000	7.251	7.623	8.130	8.819	9.864	11.707	16.333
103.70000	7.330	7.702	8.209	8.899	9.946	11.791	16.425
103.80000	7.544	7.916	8.423	9.113	10.160	12.006	16.644
103.90000	8.120	8.490	8.995	9.682	10.727	12.570	17.203
104.00000	7.477	7.851	8.360	9.053	10.105	11.960	16.617
104.10000	7.401	7.775	8.287	8.982	10.036	11.895	16.564
104.20000	7.390	7.766	8.278	8.974	10.031	11.894	16.572
104.30000	7.401	7.777	8.290	8.988	10.047	11.914	16.600
104.40000	7.419	7.796	8.310	9.010	10.070	11.940	16.636
104.50000	7.441	7.819	8.334	9.035	10.097	11.971	16.675
104.60000	7.467	7.845	8.361	9.063	10.127	12.004	16.717
104.70000	7.494	7.873	8.390	9.093	10.159	12.039	16.761
104.80000	7.523	7.903	8.420	9.124	10.193	12.077	16.806
104.90000	7.554	7.934	8.453	9.158	10.228	12.115	16.853
105.00000	7.585	7.966	8.486	9.192	10.265	12.155	16.901
105.10000	7.618	8.000	8.520	9.228	10.302	12.196	16.951
105.20000	7.652	8.035	8.556	9.265	10.341	12.237	17.001
105.30000	7.687	8.070	8.592	9.302	10.380	12.280	17.052
105.40000	7.723	8.107	8.630	9.341	10.421	12.324	17.104
105.50000	7.760	8.144	8.668	9.381	10.462	12.369	17.157
105.60000	7.798	8.183	8.708	9.421	10.505	12.415	17.212
105.70000	7.837	8.223	8.748	9.463	10.548	12.461	17.267
105.80000	7.878	8.263	8.790	9.506	10.593	12.509	17.323
105.90000	7.919	8.305	8.832	9.549	10.638	12.558	17.380
106.00000	7.961	8.348	8.876	9.594	10.685	12.608	17.438
106.10000	8.004	8.392	8.921	9.640	10.732	12.659	17.497
106.20000	8.049	8.437	8.966	9.687	10.781	12.711	17.557
106.30000	8.094	8.483	9.013	9.735	10.831	12.764	17.619
106.40000	8.141	8.530	9.062	9.784	10.882	12.818	17.681
106.50000	8.189	8.579	9.111	9.835	10.934	12.874	17.745
106.60000	8.238	8.629	9.162	9.887	10.988	12.930	17.810
106.70000	8.289	8.680	9.213	9.940	11.043	12.988	17.876
106.80000	8.340	8.732	9.267	9.994	11.099	13.048	17.943
106.90000	8.394	8.786	9.321	10.050	11.156	13.108	18.012
107.00000	8.448	8.841	9.377	10.107	11.215	13.170	18.082
107.10000	8.505	8.898	9.435	10.166	11.276	13.234	18.154
107.20000	8.563	8.957	9.495	10.227	11.339	13.300	18.228
107.30000	8.622	9.017	9.555	10.288	11.402	13.366	18.302
107.40000	8.685	9.080	9.619	10.353	11.468	13.436	18.380
107.50000	8.745	9.141	9.681	10.416	11.533	13.504	18.455
107.60000	8.809	9.206	9.746	10.483	11.601	13.575	18.535
107.70000	8.876	9.272	9.814	10.551	11.671	13.648	18.616
107.80000	8.944	9.341	9.884	10.622	11.744	13.724	18.699
107.90000	9.016	9.414	9.957	10.696	11.820	13.802	18.786
108.00000	9.087	9.486	10.030	10.770	11.895	13.881	18.872
108.10000	9.160	9.559	10.104	10.845	11.972	13.961	18.959
108.20000	9.236	9.635	10.181	10.923	12.051	14.043	19.049
108.30000	9.314	9.714	10.260	11.004	12.134	14.128	19.142
108.40000	9.395	9.796	10.342	11.087	12.218	14.216	19.238
108.50000	9.479	9.880	10.427	11.173	12.306	14.307	19.335
108.60000	9.566	9.967	10.515	11.262	12.396	14.400	19.436
108.70000	9.655	10.057	10.606	11.353	12.490	14.496	19.540
108.80000	9.748	10.151	10.700	11.449	12.586	14.596	19.647
108.90000	9.845	10.248	10.798	11.548	12.687	14.699	19.758
109.00000	9.947	10.351	10.901	11.652	12.793	14.807	19.873
109.10000	10.056	10.459	11.011	11.762	12.904	14.922	19.994
109.20000	10.174	10.578	11.130	11.882	13.026	15.046	20.125
109.30000	10.311	10.715	11.268	12.021	13.166	15.188	20.274
109.40000	10.492	10.896	11.449	12.203	13.349	15.373	20.464
109.50000	10.897	11.301	11.854	12.607	13.752	15.776	20.867
109.60000	11.188	11.592	12.145	12.898	14.043	16.068	21.161
109.70000	10.872	11.278	11.833	12.589	13.739	15.770	20.881
109.80000	10.912	11.319	11.874	12.632	13.784	15.819	20.938
109.90000	11.012	11.419	11.976	12.734	13.887	15.926	21.052
110.00000	11.136	11.544	12.101	12.860	14.015	16.056	21.189
110.10000	11.276	11.684	12.242	13.002	14.158	16.201	21.341
110.20000	11.431	11.840	12.398	13.158	14.316	16.361	21.507
110.30000	11.604	12.012	12.571	13.332	14.491	16.538	21.690
110.40000	11.801	12.210	12.769	13.531	14.690	16.740	21.896
110.50000	12.041	12.451	13.010	13.772	14.932	16.983	22.144
110.60000	12.377	12.786	13.345	14.107	15.268	17.319	22.481
110.70000	12.987	13.395	13.954	14.715	15.874	17.922	23.080
110.80000	15.320	15.724	16.276	17.029	18.177	20.206	25.320
110.90000	14.360	14.766	15.323	16.081	17.236	19.279	24.425
111.00000	13.351	13.761	14.321	15.085	16.249	18.306	23.484
111.10000	13.210	13.621	14.183	14.949	16.116	18.178	23.370
111.20000	13.259	13.671	14.234	15.001	16.170	18.235	23.436
111.30000	13.389	13.802	14.365	15.134	16.303	18.372	23.579
111.40000	13.560	13.972	14.536	15.306	16.477	18.547	23.760
111.50000	13.755	14.168	14.732	15.502	16.674	18.747	23.965
111.60000	13.968	14.381	14.946	15.717	16.890	18.965	24.187
111.70000	14.197	14.610	15.176	15.947	17.121	19.197	24.424
111.80000	14.439	14.853	15.418	16.190	17.365	19.443	24.674
111.90000	14.694	15.108	15.674	16.446	17.622	19.701	24.937
112.00000	14.963	15.377	15.944	16.716	17.892	19.973	25.212
112.10000	15.245	15.659	16.226	16.998	18.175	20.257	25.500
112.20000	15.539	15.954	16.521	17.294	18.472	20.555	25.800
112.30000	15.848	16.263	16.830	17.604	18.782	20.866	26.114
112.40000	16.172	16.587	17.154	17.928	19.106	21.191	26.442
112.50000	16.511	16.926	17.494	18.268	19.447	21.532	26.785
112.60000	16.869	17.284	17.851	18.625	19.804	21.890	27.145
112.70000	17.240	17.655	18.222	18.997	20.176	22.262	27.518
112.80000	17.633	18.048	18.615	19.389	20.569	22.656	27.912
112.90000	18.040	18.455	19.022	19.797	20.976	23.063	28.320
113.00000	18.470	18.885	19.453	20.227	21.406	23.493	28.750
113.10000	18.923	19.337	19.905	20.679	21.858	23.945	29.201
113.20000	19.398	19.812	20.379	21.153	22.332	24.418	29.674
113.30000	19.898	20.313	20.880	21.654	22.832	24.917	30.171
113.40000	20.429	20.843	21.410	22.183	23.361	25.445	30.697
113.50000	20.984	21.398	21.964	22.737	23.914	25.997	31.246
113.60000	21.566	21.980	22.546	23.318	24.494	26.576	31.822
113.70000	22.184	22.597	23.162	23.934	25.109	27.189	32.431
113.80000	22.837	23.250	23.815	24.585	25.760	27.838	33.074
113.90000	23.528	23.941	24.505	25.275	26.447	28.523	33.754
114.00000	24.261	24.673	25.237	26.005	27.177	29.250	34.473
114.10000	25.038	25.449	26.012	26.779	27.949	30.019	35.235
114.20000	25.863	26.273	26.835	27.601	28.769	30.835	36.042
114.30000	26.739	27.149	27.709	28.474	29.639	31.701	36.898
114.40000	27.670	28.079	28.638	29.401	30.564	32.622	37.807
114.50000	28.664	29.072	29.629	30.391	31.550	33.603	38.776
114.60000	29.727	30.133	30.690	31.449	32.605	34.652	39.811
114.70000	30.869	31.274	31.829	32.586	33.738	35.779	40.922
114.80000	32.110	32.514	33.066	33.820	34.969	37.002	42.127
114.90000	33.525	33.927	34.477	35.227	36.371	38.396	43.498
115.00000	35.279	35.678	36.225	36.971	38.108	40.121	45.193
115.10000	36.296	36.694	37.240	37.984	39.118	41.125	46.184
115.20000	37.805	38.201	38.744	39.485	40.613	42.611	47.645
115.30000	39.480	39.875	40.414	41.151	42.273	44.259	49.265
115.40000	41.298	41.690	42.227	42.959	44.074	46.048	51.022
115.50000	43.268	43.658	44.190	44.917	46.024	47.984	52.923
115.60000	45.401	45.787	46.315	47.036	48.135	50.079	54.979
115.70000	47.711	48.093	48.617	49.332	50.421	52.348	57.205
115.80000	50.217	50.596	51.114	51.822	52.900	54.809	59.618
115.90000	52.936	53.311	53.824	54.524	55.590	57.478	62.235
116.00000	55.893	56.263	56.770	57.461	58.515	60.380	65.079
116.10000	59.117	59.482	59.982	60.664	61.703	63.542	68.177
116.20000	62.634	62.994	63.486	64.157	65.181	66.992	71.555
116.30000	66.477	66.830	67.314	67.974	68.979	70.759	75.243
116.40000	70.681	71.028	71.502	72.149	73.135	74.880	79.277
116.50000	75.288	75.627	76.091	76.723	77.687	79.394	83.694
116.60000	80.341	80.671	81.123	81.740	82.680	84.344	88.537
116.70000	85.888	86.209	86.649	87.248	88.161	89.778	93.851
116.80000	91.981	92.292	92.717	93.297	94.181	95.745	99.686
116.90000	98.676	98.975	99.384	99.943	100.794	102.300	106.094
117.00000	106.029	106.315	106.707	107.241	108.056	109.498	113.130
117.10000	114.094	114.366	114.739	115.247	116.021	117.392	120.845
117.20000	122.923	123.179	123.531	124.010	124.740	126.032	129.287
117.30000	132.553	132.793	133.120	133.568	134.249	135.455	138.493
117.40000	143.003	143.224	143.526	143.938	144.567	145.679	148.481
117.50000	154.256	154.457	154.732	155.106	155.677	156.687	159.233
117.60000	166.246	166.425	166.670	167.004	167.513	168.415	170.686
117.70000	178.831	178.987	179.201	179.493	179.937	180.724	182.706
117.80000	191.775	191.907	192.089	192.337	192.714	193.382	195.065
117.90000	204.720	204.829	204.978	205.182	205.492	206.041	207.425
118.00000	217.182	217.269	217.387	217.548	217.793	218.227	219.322
118.10000	228.574	228.639	228.729	228.851	229.037	229.366	230.196
118.20000	238.277	238.324	238.389	238.478	238.614	238.853	239.458
118.30000	245.786	245.820	245.866	245.929	246.026	246.196	246.627
118.40000	250.887	250.912	250.946	250.992	251.062	251.186	251.500
118.50000	253.826	253.845	253.872	253.908	253.963	254.061	254.308
118.60000	255.237	255.254	255.277	255.309	255.357	255.442	255.659
118.70000	255.783	255.799	255.821	255.851	255.897	255.978	256.183
118.80000	255.787	255.803	255.825	255.855	255.901	255.982	256.187
118.90000	255.248	255.266	255.289	255.321	255.369	255.455	255.673
119.00000	253.852	253.872	253.898	253.935	253.991	254.090	254.339
119.10000	250.937	250.962	250.996	251.043	251.114	251.240	251.558
119.20000	245.877	245.911	245.959	246.023	246.121	246.295	246.734
119.30000	238.441	238.490	238.556	238.647	238.786	239.031	239.650
119.40000	228.787	228.855	228.947	229.072	229.264	229.603	230.456
